energy,xs
793000,7.392148804400213e-49
794000,1.0675264427432319e-47
795000,3.216935608410977e-47
796000,6.517803269129266e-47
797000,1.0965810954655112e-46
798000,1.6556667235694076e-46
799000,2.3286107520969096e-46
800000,3.114989385605899e-46
801000,4.0143814724001086e-46
802000,5.026368484762533e-46
803000,6.150534499361586e-46
804000,7.386466177827535e-46
805000,8.733752747497926e-46
806000,1.0191985982329501e-45
807000,1.176076018397659e-45
808000,1.3439672163032446e-45
809000,1.522832122043339e-45
810000,1.712630912902278e-45
811000,1.913324011527526e-45
812000,2.1248720841177043e-45
813000,2.347236038626369e-45
814000,2.5803770229809886e-45
815000,2.824256423317531e-45
816000,3.078835862229876e-45
817000,3.344077197034437e-45
818000,3.619942518049503e-45
819000,3.9063941468892916e-45
820000,4.203394634772646e-45
821000,4.510906760846044e-45
822000,4.8288935305208765e-45
823000,5.157318173824963e-45
824000,5.4961441437679206e-45
825000,5.845335114720588e-45
826000,6.204854980807895e-45
827000,6.574667854315599e-45
828000,6.954738064110348e-45
829000,7.345030154073128e-45
830000,7.745508881545777e-45
831000,8.156139215790858e-45
832000,8.576886336464106e-45
833000,9.007715632100097e-45
834000,9.448592698610369e-45
835000,9.899483337794112e-45
836000,1.0360353555861475e-44
837000,1.0831169561969055e-44
838000,1.131189776676788e-44
839000,1.1802504780963186e-44
840000,1.2302957413886109e-44
841000,1.2813222672077939e-44
842000,1.333326775788526e-44
843000,1.3863060068067275e-44
844000,1.4402567192414606e-44
845000,1.495175691237947e-44
846000,1.5510597199717137e-44
847000,1.6079056215138622e-44
848000,1.6657102306974573e-44
849000,1.724470400985027e-44
850000,1.7841830043371066e-44
851000,1.8448449310819253e-44
852000,1.9064530897861162e-44
853000,1.9690044071265074e-44
854000,2.032495827762965e-44
855000,2.0969243142122588e-44
856000,2.1622868467229794e-44
857000,2.2285804231514716e-44
858000,2.295802058838758e-44
859000,2.363948786488507e-44
860000,2.433017656045949e-44
861000,2.503005734577805e-44
862000,2.5739101061531843e-44
863000,2.645727871725433e-44
864000,2.718456149014966e-44
865000,2.792092072393024e-44
866000,2.8666327927663633e-44
867000,2.942075477462926e-44
868000,3.018417310118358e-44
869000,3.0956554905634807e-44
870000,3.1737872347127115e-44
871000,3.2528097744532644e-44
872000,3.3327203575353646e-44
873000,3.4135162474632664e-44
874000,3.4951947233871427e-44
875000,3.5777530799959205e-44
876000,3.6611886274108344e-44
877000,3.7454986910799776e-44
878000,3.8306806116735705e-44
879000,3.9167317449801557e-44
880000,4.0036494618035393e-44
881000,4.0914311478606287e-44
882000,4.18007420368001e-44
883000,4.269576044501365e-44
884000,4.359934100175694e-44
885000,4.4511458150662997e-44
886000,4.543208647950569e-44
887000,4.636120071922518e-44
888000,4.729877574296142e-44
889000,4.824478656509458e-44
890000,4.919920834029367e-44
891000,5.016201636257219e-44
892000,5.11331860643516e-44
893000,5.211269301553166e-44
894000,5.310051292256845e-44
895000,5.409662162755925e-44
896000,5.510099510733493e-44
897000,5.611360947255909e-44
898000,5.71344409668344e-44
899000,5.816346596581598e-44
900000,5.920066097633112e-44
901000,6.02460026355069e-44
902000,6.129946770990337e-44
903000,6.236103309465435e-44
904000,6.343067581261441e-44
905000,6.450837301351244e-44
906000,6.559410197311227e-44
907000,6.668784009237914e-44
908000,6.778956489665268e-44
909000,6.889925403482665e-44
910000,7.001688527853472e-44
911000,7.114243652134259e-44
912000,7.227588577794596e-44
913000,7.341721118337523e-44
914000,7.456639099220611e-44
915000,7.572340357777542e-44
916000,7.688822743140468e-44
917000,7.806084116162766e-44
918000,7.924122349342527e-44
919000,8.042935326746514e-44
920000,8.162520943934815e-44
921000,8.282877107885994e-44
922000,8.404001736922793e-44
923000,8.525892760638454e-44
924000,8.648548119823585e-44
925000,8.771965766393553e-44
926000,8.896143663316423e-44
927000,9.021079784541487e-44
928000,9.146772114928309e-44
929000,9.273218650176252e-44
930000,9.400417396754655e-44
931000,9.528366371833366e-44
932000,9.657063603214008e-44
933000,9.786507129261528e-44
934000,9.916694998836448e-44
935000,1.0047625271227528e-43
936000,1.017929601608498e-43
937000,1.0311705313354102e-43
938000,1.0444851253209516e-43
939000,1.0578731935989802e-43
940000,1.0713345472132655e-43
941000,1.0848689982110553e-43
942000,1.0984763596366887e-43
943000,1.112156445525248e-43
944000,1.1259090708962727e-43
945000,1.1397340517475115e-43
946000,1.1536312050487137e-43
947000,1.1676003487354846e-43
948000,1.1816413017031694e-43
949000,1.1957538838007882e-43
950000,1.2099379158250207e-43
951000,1.2241932195142239e-43
952000,1.2385196175425066e-43
953000,1.2529169335138384e-43
954000,1.2673849919562034e-43
955000,1.2819236183158008e-43
956000,1.29653263895128e-43
957000,1.3112118811280298e-43
958000,1.3259611730124984e-43
959000,1.3407803436665576e-43
960000,1.3556692230419143e-43
961000,1.3706276419745529e-43
962000,1.3856554321792225e-43
963000,1.4007524262439724e-43
964000,1.415918457624708e-43
965000,1.4311533606398086e-43
966000,1.4464569704647629e-43
967000,1.4618291231268651e-43
968000,1.4772696554999257e-43
969000,1.4927784052990424e-43
970000,1.508355211075394e-43
971000,1.5239999122110771e-43
972000,1.5397123489139822e-43
973000,1.5554923622127015e-43
974000,1.571339793951476e-43
975000,1.587254486785181e-43
976000,1.6032362841743425e-43
977000,1.6192850303801948e-43
978000,1.6354005704597676e-43
979000,1.6515827502610125e-43
980000,1.6678314164179658e-43
981000,1.6841464163459397e-43
982000,1.7005275982367526e-43
983000,1.7169748110539892e-43
984000,1.7334879045283053e-43
985000,1.7500667291527483e-43
986000,1.7667111361781198e-43
987000,1.7834209776083823e-43
988000,1.800196106196079e-43
989000,1.8170363754377966e-43
990000,1.8339416395696564e-43
991000,1.8509117535628416e-43
992000,1.8679465731191564e-43
993000,1.885045954666608e-43
994000,1.9022097553550265e-43
995000,1.9194378330517173e-43
996000,1.9367300463371355e-43
997000,1.9540862545006063e-43
998000,1.971506317536055e-43
999000,1.9889900961377832e-43
1000000,2.0065374516962645e-43
1001000,2.024148246293982e-43
1002000,2.041822342701274e-43
1003000,2.0595596043722315e-43
1004000,2.077359895440613e-43
1005000,2.0952230807157816e-43
1006000,2.113149025678688e-43
1007000,2.1311375964778596e-43
1008000,2.1491886599254413e-43
1009000,2.1673020834932403e-43
1010000,2.1854777353088137e-43
1011000,2.203715484151582e-43
1012000,2.2220151994489575e-43
1013000,2.2403767512725217e-43
1014000,2.2588000103342017e-43
1015000,2.277284847982495e-43
1016000,2.2958311361987068e-43
1017000,2.3144387475932236e-43
1018000,2.3331075554018087e-43
1019000,2.3518374334819105e-43
1020000,2.3706282563090207e-43
1021000,2.389479898973036e-43
1022000,2.4083922371746554e-43
1023000,2.427365147221802e-43
1024000,2.44639850602606e-43
1025000,2.4654921910991513e-43
1026000,2.484646080549419e-43
1027000,2.5038600530783484e-43
1028000,2.5231339879771114e-43
1029000,2.54246776512312e-43
1030000,2.561861264976618e-43
1031000,2.581314368577291e-43
1032000,2.600826957540896e-43
1033000,2.6203989140559257e-43
1034000,2.640030120880277e-43
1035000,2.659720461337955e-43
1036000,2.6794698193157958e-43
1037000,2.6992780792602143e-43
1038000,2.7191451261739673e-43
1039000,2.739070845612945e-43
1040000,2.7590551236829837e-43
1041000,2.7790978470366856e-43
1042000,2.799198902870291e-43
1043000,2.8193581789205334e-43
1044000,2.8395755634615484e-43
1045000,2.8598509453017863e-43
1046000,2.8801842137809438e-43
1047000,2.9005752587669257e-43
1048000,2.921023970652819e-43
1049000,2.9415302403538943e-43
1050000,2.962093959304626e-43
1051000,2.9827150194557137e-43
1052000,3.0033933132711658e-43
1053000,3.0241287337253464e-43
1054000,3.044921174300095e-43
1055000,3.065770528981833e-43
1056000,3.0866766922586916e-43
1057000,3.1076395591176794e-43
1058000,3.128659025041843e-43
1059000,3.1497349860074584e-43
1060000,3.1708673384812524e-43
1061000,3.1920559794176135e-43
1062000,3.213300806255853e-43
1063000,3.2346017169174576e-43
1064000,3.255958609803379e-43
1065000,3.277371383791332e-43
1066000,3.298839938233112e-43
1067000,3.3203641729519307e-43
1068000,3.3419439882397636e-43
1069000,3.3635792848547314e-43
1070000,3.3852699640184797e-43
1071000,3.4070159274135832e-43
1072000,3.4288170771809707e-43
1073000,3.450673315917361e-43
1074000,3.472584546672718e-43
1075000,3.4945506729477214e-43
1076000,3.5165715986912556e-43
1077000,3.538647228297913e-43
1078000,3.56077746660552e-43
1079000,3.582962218892665e-43
1080000,3.605201390876252e-43
1081000,3.6274948887090775e-43
1082000,3.649842618977405e-43
1083000,3.6722444886985655e-43
1084000,3.694700405318583e-43
1085000,3.717210276709788e-43
1086000,3.73977401116848e-43
1087000,3.7623915174125795e-43
1088000,3.785062704579299e-43
1089000,3.807787482222849e-43
1090000,3.830565760312129e-43
1091000,3.8533974492284576e-43
1092000,3.876282459763301e-43
1093000,3.899220703116027e-43
1094000,3.922212090891666e-43
1095000,3.945256535098691e-43
1096000,3.968353948146812e-43
1097000,3.991504242844779e-43
1098000,4.014707332398198e-43
1099000,4.037963130407375e-43
1100000,4.0612715508651644e-43
1101000,4.084632508154818e-43
1102000,4.108045917047874e-43
1103000,4.131511692702038e-43
1104000,4.15502975065909e-43
1105000,4.1786000068427935e-43
1106000,4.202222377556832e-43
1107000,4.225896779482745e-43
1108000,4.249623129677887e-43
1109000,4.27340134557339e-43
1110000,4.2972313449721495e-43
1111000,4.321113046046813e-43
1112000,4.345046367337791e-43
1113000,4.3690312277512664e-43
1114000,4.3930675465572385e-43
1115000,4.417155243387558e-43
1116000,4.4412942382339765e-43
1117000,4.4654844514462275e-43
1118000,4.4897258037300975e-43
1119000,4.514018216145519e-43
1120000,4.538361610104678e-43
1121000,4.562755907370126e-43
1122000,4.587201030052901e-43
1123000,4.611696900610682e-43
1124000,4.636243441845928e-43
1125000,4.660840576904037e-43
1126000,4.685488229271532e-43
1127000,4.710186322774238e-43
1128000,4.734934781575475e-43
1129000,4.759733530174271e-43
1130000,4.78458249340358e-43
1131000,4.809481596428505e-43
1132000,4.834430764744545e-43
1133000,4.859429924175845e-43
1134000,4.884479000873458e-43
1135000,4.9095779213136125e-43
1136000,4.934726612296004e-43
1137000,4.959925000942082e-43
1138000,4.985173014693356e-43
1139000,5.010470581309712e-43
1140000,5.0358176288677375e-43
1141000,5.061214085759057e-43
1142000,5.086659880688676e-43
1143000,5.112154942673333e-43
1144000,5.137699201039876e-43
1145000,5.16329258542363e-43
1146000,5.188935025766781e-43
1147000,5.214626452316781e-43
1148000,5.240366795624735e-43
1149000,5.266155986543846e-43
1150000,5.291993956227806e-43
1151000,5.317880636129256e-43
1152000,5.343815957998216e-43
1153000,5.36979985388054e-43
1154000,5.395832256116386e-43
1155000,5.42191309733867e-43
1156000,5.44804231047158e-43
1157000,5.474219828729022e-43
1158000,5.5004455856131625e-43
1159000,5.526719514912906e-43
1160000,5.553041550702429e-43
1161000,5.579411627339695e-43
1162000,5.605829679465008e-43
1163000,5.632295641999534e-43
1164000,5.658809450143868e-43
1165000,5.685371039376593e-43
1166000,5.711980345452848e-43
1167000,5.738637304402909e-43
1168000,5.765341852530772e-43
1169000,5.7920939264127545e-43
1170000,5.818893462896103e-43
1171000,5.8457403990975844e-43
1172000,5.872634672402139e-43
1173000,5.899576220461477e-43
1174000,5.926564981192742e-43
1175000,5.9536008927771436e-43
1176000,5.980683893658601e-43
1177000,6.007813922542428e-43
1178000,6.034990918393982e-43
1179000,6.062214820437362e-43
1180000,6.0894855681540596e-43
1181000,6.116803101281693e-43
1182000,6.144167359812671e-43
1183000,6.171578283992929e-43
1184000,6.1990358143206264e-43
1185000,6.226539891544881e-43
1186000,6.254090456664493e-43
1187000,6.281687450926688e-43
1188000,6.3093308158258555e-43
1189000,6.337020493102322e-43
1190000,6.364756424741079e-43
1191000,6.392538552970586e-43
1192000,6.420366820261514e-43
1193000,6.448241169325556e-43
1194000,6.476161543114194e-43
1195000,6.504127884817503e-43
1196000,6.532140137862971e-43
1197000,6.560198245914276e-43
1198000,6.5883021528701335e-43
1199000,6.616451802863104e-43
1200000,6.644647140258431e-43
1201000,6.672888109652883e-43
1202000,6.7011746558735876e-43
1203000,6.729506723976889e-43
1204000,6.757884259247205e-43
1205000,6.786307207195898e-43
1206000,6.81477551356013e-43
1207000,6.843289124301764e-43
1208000,6.871847985606234e-43
1209000,6.900452043881432e-43
1210000,6.9291012457566095e-43
1211000,6.957795538081296e-43
1212000,6.986534867924178e-43
1213000,7.0153191825720475e-43
1214000,7.04414842952871e-43
1215000,7.073022556513905e-43
1216000,7.101941511462254e-43
1217000,7.1309052425222006e-43
1218000,7.159913698054949e-43
1219000,7.18896682663342e-43
1220000,7.218064577041231e-43
1221000,7.247206898271615e-43
1222000,7.276393739526442e-43
1223000,7.305625050215162e-43
1224000,7.334900779953802e-43
1225000,7.364220878563955e-43
1226000,7.393585296071763e-43
1227000,7.422993982706936e-43
1228000,7.452446888901744e-43
1229000,7.481943965290023e-43
1230000,7.511485162706214e-43
1231000,7.541070432184361e-43
1232000,7.570699724957162e-43
1233000,7.600372992454981e-43
1234000,7.630090186304905e-43
1235000,7.65985125832978e-43
1236000,7.689656160547262e-43
1237000,7.719504845168871e-43
1238000,7.749397264599054e-43
1239000,7.779333371434258e-43
1240000,7.809313118461984e-43
1241000,7.839336458659882e-43
1242000,7.869403345194826e-43
1243000,7.899513731421986e-43
1244000,7.929667570883952e-43
1245000,7.959864817309803e-43
1246000,7.990105424614221e-43
1247000,8.020389346896599e-43
1248000,8.050716538440144e-43
1249000,8.081086953711015e-43
1250000,8.111500547357415e-43
1251000,8.141957274208753e-43
1252000,8.17245708927474e-43
1253000,8.202999947744559e-43
1254000,8.233585804985976e-43
1255000,8.26421461654452e-43
1256000,8.294886338142601e-43
1257000,8.325600925678684e-43
1258000,8.356358335226465e-43
1259000,8.38715852303398e-43
1260000,8.418001445522865e-43
1261000,8.448887059287421e-43
1262000,8.4798153210939e-43
1263000,8.510786187879614e-43
1264000,8.541799616752146e-43
1265000,8.572855564988566e-43
1266000,8.60395399003459e-43
1267000,8.635094849503803e-43
1268000,8.666278101176869e-43
1269000,8.697503703000717e-43
1270000,8.728771613087793e-43
1271000,8.760081789715238e-43
1272000,8.791434191324158e-43
1273000,8.822828776518791e-43
1274000,8.854265504065807e-43
1275000,8.885744332893484e-43
1276000,8.917265222090985e-43
1277000,8.948828130907604e-43
1278000,8.980433018751981e-43
1279000,9.012079845191396e-43
1280000,9.043768569950984e-43
1281000,9.075499152913038e-43
1282000,9.107271554116244e-43
1283000,9.13908573375496e-43
1284000,9.170941652178493e-43
1285000,9.202839269890369e-43
1286000,9.234778547547617e-43
1287000,9.26675944596004e-43
1288000,9.298781926089538e-43
1289000,9.330845949049368e-43
1290000,9.362951476103437e-43
1291000,9.395098468665649e-43
1292000,9.427286888299138e-43
1293000,9.45951669671564e-43
1294000,9.491787855774772e-43
1295000,9.52410032748335e-43
1296000,9.5564540739947e-43
1297000,9.588849057608009e-43
1298000,9.621285240767629e-43
1299000,9.653762586062398e-43
1300000,9.686281056225003e-43
1301000,9.718840614131296e-43
1302000,9.751441222799625e-43
1303000,9.784082845390204e-43
1304000,9.816765445204456e-43
1305000,9.849488985684332e-43
1306000,9.882253430411722e-43
1307000,9.915058743107747e-43
1308000,9.947904887632183e-43
1309000,9.980791827982774e-43
1310000,1.0013719528294639e-42
1311000,1.004668795283962e-42
1312000,1.0079697066025672e-42
1313000,1.0112746832396223e-42
1314000,1.0145837216629579e-42
1315000,1.0178968183538288e-42
1316000,1.0212139698068536e-42
1317000,1.0245351725299545e-42
1318000,1.0278604230442961e-42
1319000,1.0311897178842246e-42
1320000,1.03452305359721e-42
1321000,1.0378604267437834e-42
1322000,1.0412018338974795e-42
1323000,1.0445472716447798e-42
1324000,1.0478967365850484e-42
1325000,1.0512502253304804e-42
1326000,1.0546077345060375e-42
1327000,1.0579692607493958e-42
1328000,1.0613348007108832e-42
1329000,1.064704351053428e-42
1330000,1.0680779084524958e-42
1331000,1.0714554695960394e-42
1332000,1.0748370311844371e-42
1333000,1.0782225899304396e-42
1334000,1.0816121425591146e-42
1335000,1.0850056858077898e-42
1336000,1.0884032164260007e-42
1337000,1.0918047311754303e-42
1338000,1.0952102268298628e-42
1339000,1.098619700175121e-42
1340000,1.1020331480090179e-42
1341000,1.105450567141302e-42
1342000,1.1088719543936034e-42
1343000,1.1122973065993789e-42
1344000,1.1157266206038636e-42
1345000,1.119159893264014e-42
1346000,1.1225971214484588e-42
1347000,1.1260383020374448e-42
1348000,1.1294834319227868e-42
1349000,1.1329325080078161e-42
1350000,1.1363855272073266e-42
1351000,1.139842486447529e-42
1352000,1.1433033826659948e-42
1353000,1.1467682128116099e-42
1354000,1.1502369738445221e-42
1355000,1.1537096627360928e-42
1356000,1.1571862764688451e-42
1357000,1.160666812036419e-42
1358000,1.1641512664435166e-42
1359000,1.1676396367058576e-42
1360000,1.1711319198501282e-42
1361000,1.1746281129139345e-42
1362000,1.1781282129457538e-42
1363000,1.1816322170048852e-42
1364000,1.1851401221614053e-42
1365000,1.1886519254961177e-42
1366000,1.1921676241005077e-42
1367000,1.1956872150766938e-42
1368000,1.1992106955373845e-42
1369000,1.2027380626058281e-42
1370000,1.2062693134157676e-42
1371000,1.209804445111396e-42
1372000,1.2133434548473096e-42
1373000,1.2168863397884628e-42
1374000,1.2204330971101229e-42
1375000,1.2239837239978257e-42
1376000,1.227538217647329e-42
1377000,1.2310965752645704e-42
1378000,1.2346587940656207e-42
1379000,1.238224871276642e-42
1380000,1.241794804133842e-42
1381000,1.2453685898834318e-42
1382000,1.2489462257815806e-42
1383000,1.2525277090943755e-42
1384000,1.2561130370977757e-42
1385000,1.2597022070775709e-42
1386000,1.2632952163293391e-42
1387000,1.266892062158403e-42
1388000,1.2704927418797901e-42
1389000,1.274097252818188e-42
1390000,1.2777055923079048e-42
1391000,1.2813177576928272e-42
1392000,1.2849337463263792e-42
1393000,1.2885535555714797e-42
1394000,1.2921771828005043e-42
1395000,1.2958046253952413e-42
1396000,1.2994358807468557e-42
1397000,1.3030709462558431e-42
1398000,1.3067098193319957e-42
1399000,1.3103524973943577e-42
1400000,1.313998977871189e-42
1401000,1.3176492581999236e-42
1402000,1.3213033358271308e-42
1403000,1.3249612082084778e-42
1404000,1.3286228728086879e-42
1405000,1.332288327101504e-42
1406000,1.3359575685696504e-42
1407000,1.3396305947047926e-42
1408000,1.3433074030075002e-42
1409000,1.3469879909872105e-42
1410000,1.3506723561621868e-42
1411000,1.3543604960594858e-42
1412000,1.3580524082149174e-42
1413000,1.3617480901730072e-42
1414000,1.3654475394869611e-42
1415000,1.3691507537186268e-42
1416000,1.3728577304384596e-42
1417000,1.3765684672254839e-42
1418000,1.3802829616672563e-42
1419000,1.3840012113598331e-42
1420000,1.3877232139077306e-42
1421000,1.3914489669238911e-42
1422000,1.3951784680296475e-42
1423000,1.3989117148546878e-42
1424000,1.4026487050370186e-42
1425000,1.4063894362229328e-42
1426000,1.410133906066971e-42
1427000,1.4138821122318907e-42
1428000,1.4176340523886306e-42
1429000,1.4213897242162745e-42
1430000,1.4251491254020178e-42
1431000,1.4289122536411356e-42
1432000,1.4326791066369456e-42
1433000,1.436449682100778e-42
1434000,1.4402239777519395e-42
1435000,1.4440019913176797e-42
