energy,xs
8000,1.3730148567896565e-47
9000,1.8156569671688864e-46
10000,5.003265241466215e-46
11000,9.378500638922475e-46
12000,1.474786787995827e-45
13000,2.0989293285917355e-45
14000,2.8022675745734793e-45
15000,3.579368872159201e-45
16000,4.4264432449573484e-45
17000,5.340781495372337e-45
18000,6.320405399785226e-45
19000,7.363843203751018e-45
20000,8.469981629457339e-45
21000,9.63796598316027e-45
22000,1.0867131291509828e-44
23000,1.2156953921183701e-44
24000,1.3507017003471436e-44
25000,1.4916985338812907e-44
26000,1.6386586923042216e-44
27000,1.7915599171272105e-44
28000,1.9503838522207314e-44
29000,2.115115250707925e-44
30000,2.2857413637346556e-44
31000,2.4622514649654607e-44
32000,2.6446364774231015e-44
33000,2.832888678250078e-44
34000,3.0270014633361604e-44
35000,3.226969158330101e-44
36000,3.4327868658755653e-44
37000,3.644450341348074e-44
38000,3.861955891174038e-44
39000,4.0853002891607406e-44
40000,4.314480707281348e-44
41000,4.549494658129801e-44
42000,4.790339946849911e-44
43000,5.037014630797022e-44
44000,5.289516985542721e-44
45000,5.547845476107748e-44
46000,5.811998732524021e-44
47000,6.081975528996856e-44
48000,6.357774766073811e-44
49000,6.639395455334363e-44
50000,6.9268367062012e-44
51000,7.220097714543684e-44
52000,7.519177752800447e-44
53000,7.824076161394036e-44
54000,8.13479234124801e-44
55000,8.451325747247593e-44
56000,8.773675882510342e-44
57000,9.10184229335415e-44
58000,9.435824564867228e-44
59000,9.775622316999183e-44
60000,1.0121235201104262e-43
61000,1.0472662896877983e-43
62000,1.0829905109636816e-43
63000,1.1192961567897642e-43
64000,1.1561832021219927e-43
65000,1.1936516238278398e-43
66000,1.2317014005138627e-43
67000,1.2703325123711368e-43
68000,1.3095449410364852e-43
69000,1.3493386694676786e-43
70000,1.3897136818310327e-43
71000,1.4306699633999996e-43
72000,1.4722075004635566e-43
73000,1.5143262802433135e-43
74000,1.5570262908184093e-43
75000,1.6003075210573737e-43
76000,1.6441699605562188e-43
77000,1.6886135995821226e-43
78000,1.7336384290221376e-43
79000,1.7792444403364092e-43
80000,1.8254316255154682e-43
81000,1.872199977041185e-43
82000,1.9195494878510372e-43
83000,1.9674801513053808e-43
84000,2.015991961157418e-43
85000,2.065084911525637e-43
86000,2.1147589968684745e-43
87000,2.1650142119610047e-43
88000,2.2158505518734783e-43
89000,2.267268011951532e-43
90000,2.3192665877979333e-43
91000,2.3718462752557212e-43
92000,2.425007070392622e-43
93000,2.4787489694866305e-43
94000,2.5330719690126625e-43
95000,2.5879760656301844e-43
96000,2.6434612561717345e-43
97000,2.6995275376322783e-43
98000,2.756174907159312e-43
99000,2.8134033620436667e-43
100000,2.871212899710952e-43
101000,2.9296035177135864e-43
102000,2.988575213723378e-43
103000,3.048127985524604e-43
104000,3.108261831007549e-43
105000,3.168976748162483e-43
106000,3.23027273507402e-43
107000,3.2921497899158634e-43
108000,3.354607910945871e-43
109000,3.4176470965014476e-43
110000,3.481267344995227e-43
111000,3.54546865491102e-43
112000,3.6102510248000195e-43
113000,3.675614453277246e-43
114000,3.741558939018192e-43
115000,3.8080844807556854e-43
116000,3.875191077276941e-43
117000,3.942878727420776e-43
118000,4.011147430075001e-43
119000,4.079997184173966e-43
120000,4.1494279886962285e-43
121000,4.219439842662384e-43
122000,4.290032745133002e-43
123000,4.3612066952066845e-43
124000,4.4329616920182295e-43
125000,4.5052977347369125e-43
126000,4.578214822564832e-43
127000,4.651712954735384e-43
128000,4.72579213051179e-43
129000,4.800452349185716e-43
130000,4.875693610075968e-43
131000,4.951515912527253e-43
132000,5.0279192559090036e-43
133000,5.104903639614269e-43
134000,5.18246906305866e-43
135000,5.260615525679355e-43
136000,5.3393430269341435e-43
137000,5.418651566300531e-43
138000,5.498541143274891e-43
139000,5.5790117573716405e-43
140000,5.660063408122479e-43
141000,5.741696095075656e-43
142000,5.82390981779527e-43
143000,5.9067045758606055e-43
144000,5.990080368865506e-43
145000,6.07403719641777e-43
146000,6.158575058138583e-43
147000,6.2436939536619735e-43
148000,6.3293938826342895e-43
149000,6.4156748447137056e-43
150000,6.502536839569754e-43
151000,6.589979866882871e-43
152000,6.678003926343976e-43
153000,6.766609017654048e-43
154000,6.855795140523751e-43
155000,6.9455622946730414e-43
156000,7.035910479830835e-43
157000,7.126839695734644e-43
158000,7.218349942130268e-43
159000,7.310441218771467e-43
160000,7.40311352541968e-43
161000,7.496366861843726e-43
162000,7.590201227819537e-43
163000,7.684616623129903e-43
164000,7.779613047564209e-43
165000,7.875190500918202e-43
166000,7.971348982993777e-43
167000,8.068088493598727e-43
168000,8.16540903254655e-43
169000,8.263310599656252e-43
170000,8.361793194752139e-43
171000,8.460856817663652e-43
172000,8.56050146822516e-43
173000,8.660727146275818e-43
174000,8.761533851659376e-43
175000,8.862921584224053e-43
176000,8.964890343822352e-43
177000,9.067440130310938e-43
178000,9.170570943550493e-43
179000,9.274282783405573e-43
180000,9.37857564974449e-43
181000,9.483449542439185e-43
182000,9.588904461365102e-43
183000,9.694940406401088e-43
184000,9.801557377429263e-43
185000,9.908755374334929e-43
186000,1.001653439700647e-42
187000,1.0124894445335229e-42
188000,1.0233835519215445e-42
189000,1.0343357618544148e-42
190000,1.0453460743221062e-42
191000,1.0564144893148537e-42
192000,1.067541006823145e-42
193000,1.0787256268377149e-42
194000,1.0899683493495351e-42
195000,1.1012691743498094e-42
196000,1.112628101829964e-42
197000,1.1240451317816437e-42
198000,1.1355202641967024e-42
199000,1.1470534990671991e-42
200000,1.1586448363853901e-42
201000,1.1702942761437247e-42
202000,1.1820018183348376e-42
203000,1.1937674629515459e-42
204000,1.2055912099868407e-42
205000,1.2174730594338844e-42
206000,1.2294130112860053e-42
207000,1.241411065536692e-42
208000,1.2534672221795891e-42
209000,1.2655814812084936e-42
210000,1.2777538426173485e-42
211000,1.289984306400242e-42
212000,1.3022728725513993e-42
213000,1.3146195410651822e-42
214000,1.3270243119360832e-42
215000,1.3394871851587236e-42
216000,1.3520081607278475e-42
217000,1.364587238638321e-42
218000,1.3772244188851269e-42
219000,1.3899197014633625e-42
220000,1.4026730863682368e-42
221000,1.4154845735950662e-42
222000,1.428354163139273e-42
223000,1.4412818549963814e-42
224000,1.454267649162015e-42
225000,1.4673115456318955e-42
226000,1.4804135444018386e-42
227000,1.4935736454677512e-42
228000,1.5067918488256304e-42
229000,1.5200681544715612e-42
230000,1.5334025624017115e-42
231000,1.5467950726123345e-42
232000,1.560245685099762e-42
233000,1.5737543998604056e-42
234000,1.5873212168907534e-42
235000,1.6009461361873662e-42
236000,1.6146291577468792e-42
237000,1.628370281565999e-42
238000,1.6421695076414996e-42
239000,1.6560268359702232e-42
240000,1.6699422665490773e-42
241000,1.6839157993750347e-42
242000,1.697947434445129e-42
243000,1.7120371717564536e-42
244000,1.726185011306166e-42
245000,1.740390953091477e-42
246000,1.7546549971096562e-42
247000,1.768977143358027e-42
248000,1.783357391833967e-42
249000,1.797795742534909e-42
250000,1.8122921954583327e-42
251000,1.826846750601771e-42
252000,1.8414594079628042e-42
253000,1.8561301675390613e-42
254000,1.8708590293282176e-42
255000,1.8856459933279923e-42
256000,1.9004910595361515e-42
257000,1.9153942279505033e-42
258000,1.9303554985688994e-42
259000,1.9453748713892306e-42
260000,1.9604523464094304e-42
261000,1.9755879236274695e-42
262000,1.9907816030413614e-42
263000,2.006033384649153e-42
264000,2.0213432684489303e-42
265000,2.0367112544388142e-42
266000,2.0521373426169614e-42
267000,2.067621532981564e-42
268000,2.0831638255308466e-42
269000,2.0987642202630667e-42
270000,2.1144227171765145e-42
271000,2.1301393162695115e-42
272000,2.1459140175404097e-42
273000,2.1617468209875917e-42
274000,2.1776377266094693e-42
275000,2.193586734404484e-42
276000,2.209593844371104e-42
277000,2.2256590565078258e-42
278000,2.2417823708131734e-42
279000,2.2579637872856962e-42
280000,2.2742033059239696e-42
281000,2.2905009267265956e-42
282000,2.3068566496921995e-42
283000,2.3232704748194313e-42
284000,2.3397424021069655e-42
285000,2.3562724315534983e-42
286000,2.3728605631577492e-42
287000,2.3895067969184616e-42
288000,2.406211132834398e-42
289000,2.4229735709043433e-42
290000,2.4397941111271045e-42
291000,2.456672753501508e-42
292000,2.4736094980264004e-42
293000,2.4906043447006473e-42
294000,2.5076572935231353e-42
295000,2.5247683444927685e-42
296000,2.5419374976084688e-42
297000,2.5591647528691775e-42
298000,2.576450110273854e-42
299000,2.5937935698214746e-42
300000,2.611195131511031e-42
301000,2.6286547953415338e-42
302000,2.646172561312008e-42
303000,2.663748429421498e-42
304000,2.6813823996690608e-42
305000,2.699074472053769e-42
306000,2.7168246465747116e-42
307000,2.7346329232309933e-42
308000,2.7524993020217286e-42
309000,2.770423782946053e-42
310000,2.788406366003111e-42
311000,2.8064470511920618e-42
312000,2.8245458385120796e-42
313000,2.8427027279623505e-42
314000,2.8609177195420743e-42
315000,2.879190813250462e-42
316000,2.8975220090867385e-42
317000,2.91591130705014e-42
318000,2.934358707139916e-42
319000,2.952864209355328e-42
320000,2.9714278136956456e-42
321000,2.990049520160153e-42
322000,3.008729328748145e-42
323000,3.027467239458926e-42
324000,3.0462632522918134e-42
325000,3.065117367246132e-42
326000,3.08402958432122e-42
327000,3.102999903516423e-42
328000,3.1220283248311e-42
329000,3.141114848264616e-42
330000,3.160259473816347e-42
331000,3.179462201485679e-42
332000,3.198723031272008e-42
333000,3.218041963174737e-42
334000,3.237418997193279e-42
335000,3.256854133327055e-42
336000,3.276347371575496e-42
337000,3.295898711938039e-42
338000,3.315508154414135e-42
339000,3.335175699003234e-42
340000,3.354901345704802e-42
341000,3.37468509451831e-42
342000,3.394526945443236e-42
343000,3.4144268984790655e-42
344000,3.4343849536252937e-42
345000,3.4544011108814195e-42
346000,3.474475370246955e-42
347000,3.494607731721412e-42
348000,3.514798195304313e-42
349000,3.535046760995188e-42
350000,3.5553534287935745e-42
351000,3.575718198699012e-42
352000,3.5961410707110506e-42
353000,3.6166220448292457e-42
354000,3.63716112105316e-42
355000,3.6577582993823584e-42
356000,3.678413579816416e-42
357000,3.6991269623549134e-42
358000,3.7198984469974366e-42
359000,3.740728033743574e-42
360000,3.761615722592927e-42
361000,3.782561513545095e-42
362000,3.803565406599687e-42
363000,3.824627401756316e-42
364000,3.845747499014601e-42
365000,3.8669256983741663e-42
366000,3.8881619998346416e-42
367000,3.909456403395661e-42
368000,3.9308089090568623e-42
369000,3.95221951681789e-42
370000,3.9736882266783945e-42
371000,3.995215038638028e-42
372000,4.0167999526964494e-42
373000,4.03844296885332e-42
374000,4.060144087108308e-42
375000,4.0819033074610855e-42
376000,4.103720629911327e-42
377000,4.1255960544587145e-42
378000,4.147529581102934e-42
379000,4.1695212098436716e-42
380000,4.1915709406806204e-42
381000,4.21367877361348e-42
382000,4.235844708641945e-42
383000,4.2580687457657276e-42
384000,4.280350884984531e-42
385000,4.302691126298071e-42
386000,4.325089469706061e-42
387000,4.3475459152082237e-42
388000,4.3700604628042795e-42
389000,4.392633112493956e-42
390000,4.415263864276985e-42
391000,4.437952718153098e-42
392000,4.460699674122033e-42
393000,4.483504732183534e-42
394000,4.5063678923373407e-42
395000,4.529289154583199e-42
396000,4.552268518920864e-42
397000,4.5753059853500866e-42
398000,4.5984015538706235e-42
399000,4.621555224482235e-42
400000,4.644766997184682e-42
401000,4.668036871977729e-42
402000,4.691364848861149e-42
403000,4.7147509278347085e-42
404000,4.738195108898185e-42
405000,4.761697392051354e-42
406000,4.7852577772939946e-42
407000,4.808876264625892e-42
408000,4.8325528540468266e-42
409000,4.8562875455565894e-42
410000,4.8800803391549707e-42
411000,4.9039312348417625e-42
412000,4.927840232616757e-42
413000,4.951807332479756e-42
414000,4.975832534430559e-42
415000,4.99991583846897e-42
416000,5.0240572445947903e-42
417000,5.0482567528078294e-42
418000,5.0725143631078964e-42
419000,5.096830075494804e-42
420000,5.1212038899683656e-42
421000,5.1456358065283964e-42
422000,5.170125825174717e-42
423000,5.194673945907149e-42
424000,5.2192801687255115e-42
425000,5.2439444936296295e-42
426000,5.268666920619335e-42
427000,5.2934474496944526e-42
428000,5.318286080854815e-42
429000,5.3431828141002507e-42
430000,5.3681376494306005e-42
431000,5.393150586845699e-42
432000,5.418221626345383e-42
433000,5.4433507679294965e-42
434000,5.468538011597879e-42
435000,5.493783357350374e-42
436000,5.5190868051868315e-42
437000,5.544448355107095e-42
438000,5.5698680071110154e-42
439000,5.5953457611984445e-42
440000,5.6208816173692334e-42
441000,5.646475575623239e-42
442000,5.6721276359603156e-42
443000,5.6978377983803214e-42
444000,5.723606062883117e-42
445000,5.749432429468562e-42
446000,5.775316898136517e-42
447000,5.801259468886849e-42
448000,5.827260141719424e-42
449000,5.853318916634106e-42
450000,5.879435793630765e-42
451000,5.905610772709273e-42
452000,5.931843853869499e-42
453000,5.958135037111315e-42
454000,5.984484322434598e-42
455000,6.010891709839222e-42
456000,6.037357199325064e-42
457000,6.063880790892003e-42
458000,6.090462484539918e-42
459000,6.117102280268687e-42
460000,6.1438001780782e-42
461000,6.170556177968334e-42
462000,6.197370279938976e-42
463000,6.224242483990009e-42
464000,6.251172790121325e-42
465000,6.278161198332809e-42
466000,6.305207708624352e-42
467000,6.332312320995846e-42
468000,6.359475035447184e-42
469000,6.386695851978253e-42
470000,6.413974770588954e-42
471000,6.441311791279178e-42
472000,6.468706914048823e-42
473000,6.496160138897786e-42
474000,6.523671465825969e-42
475000,6.551240894833269e-42
476000,6.578868425919586e-42
477000,6.606554059084822e-42
478000,6.634297794328882e-42
479000,6.662099631651666e-42
480000,6.689959571053085e-42
481000,6.717877612533039e-42
482000,6.745853756091435e-42
483000,6.773888001728188e-42
484000,6.801980349443201e-42
485000,6.830130799236378e-42
486000,6.858339351107644e-42
487000,6.886606005056897e-42
488000,6.914930761084056e-42
489000,6.943313619189036e-42
490000,6.971754579371748e-42
491000,7.000253641632107e-42
492000,7.028810805970028e-42
493000,7.057426072385432e-42
494000,7.086099440878233e-42
495000,7.114830911448347e-42
496000,7.143620484095701e-42
497000,7.172468158820211e-42
498000,7.201373935621796e-42
499000,7.23033781450038e-42
500000,7.259359795455884e-42
501000,7.288439878488236e-42
502000,7.317578063597352e-42
503000,7.346774350783165e-42
504000,7.376028740045596e-42
505000,7.405341231384569e-42
506000,7.434711824800016e-42
507000,7.464140520291864e-42
508000,7.493627317860039e-42
509000,7.523172217504468e-42
510000,7.552775219225087e-42
511000,7.582436323021823e-42
512000,7.612155528894607e-42
513000,7.641932836843371e-42
514000,7.671768246868052e-42
515000,7.701661758968574e-42
516000,7.731613373144878e-42
517000,7.761623089396897e-42
518000,7.791690907724562e-42
519000,7.821816828127817e-42
520000,7.852000850606593e-42
521000,7.882242975160826e-42
522000,7.912543201790457e-42
523000,7.942901530495418e-42
524000,7.973317961275658e-42
525000,8.003792494131105e-42
526000,8.034325129061704e-42
527000,8.064915866067398e-42
528000,8.095564705148126e-42
529000,8.126271646303826e-42
530000,8.157036689534447e-42
531000,8.187859834839923e-42
532000,8.218741082220209e-42
533000,8.249680431675238e-42
534000,8.280677883204957e-42
535000,8.311733436809313e-42
536000,8.34284709248825e-42
537000,8.374018850241715e-42
538000,8.405248710069654e-42
539000,8.436536671972012e-42
540000,8.467882735948739e-42
541000,8.499286901999781e-42
542000,8.530749170125085e-42
543000,8.562269540324601e-42
544000,8.593848012598282e-42
545000,8.625484586946072e-42
546000,8.657179263367922e-42
547000,8.688932041863784e-42
548000,8.72074292243361e-42
549000,8.752611905077351e-42
550000,8.78453898979496e-42
551000,8.816524176586385e-42
552000,8.848567465451582e-42
553000,8.880668856390504e-42
554000,8.912828349403106e-42
555000,8.94504594448934e-42
556000,8.977321641649162e-42
557000,9.009655440882524e-42
558000,9.042047342189384e-42
559000,9.074497345569696e-42
560000,9.10700545102342e-42
561000,9.139571658550503e-42
562000,9.172195968150916e-42
563000,9.204878379824605e-42
564000,9.237618893571532e-42
565000,9.270417509391654e-42
566000,9.30327422728493e-42
567000,9.336189047251316e-42
568000,9.369161969290775e-42
569000,9.402192993403269e-42
570000,9.435282119588749e-42
571000,9.46842934784718e-42
572000,9.501634678178523e-42
573000,9.534898110582739e-42
574000,9.568219645059787e-42
575000,9.601599281609632e-42
576000,9.635037020232234e-42
577000,9.668532860927557e-42
578000,9.702086803695558e-42
579000,9.735698848536205e-42
580000,9.769368995449458e-42
581000,9.803097244435283e-42
582000,9.836883595493645e-42
583000,9.870728048624504e-42
584000,9.904630603827826e-42
585000,9.938591261103578e-42
586000,9.97261002045172e-42
587000,1.0006686881872224e-41
588000,1.0040821845365048e-41
589000,1.0075014910930168e-41
590000,1.0109266078567541e-41
591000,1.014357534827714e-41
592000,1.0177942720058922e-41
593000,1.0212368193912867e-41
594000,1.0246851769838933e-41
595000,1.028139344783709e-41
596000,1.0315993227907309e-41
597000,1.0350651110049551e-41
598000,1.0385367094263793e-41
599000,1.0420141180549997e-41
600000,1.0454973368908135e-41
601000,1.0489863659338174e-41
602000,1.0524812051840091e-41
603000,1.0559818546413843e-41
604000,1.059488314305941e-41
605000,1.063000584177676e-41
606000,1.0665186642565861e-41
607000,1.0700425545426684e-41
608000,1.0735722550359201e-41
609000,1.0771077657363389e-41
610000,1.0806490866439206e-41
611000,1.0841962177586633e-41
612000,1.0877491590805642e-41
613000,1.0913079106096204e-41
614000,1.094872472345829e-41
615000,1.0984428442891868e-41
616000,1.1020190264396923e-41
617000,1.1056010187973419e-41
618000,1.1091888213621327e-41
619000,1.1127824341340626e-41
620000,1.1163818571131292e-41
621000,1.1199870902993288e-41
622000,1.1235981336926598e-41
623000,1.1272149872931195e-41
624000,1.1308376511007052e-41
625000,1.1344661251154143e-41
626000,1.1381004093372442e-41
627000,1.1417405037661924e-41
628000,1.1453864084022566e-41
629000,1.1490381232454344e-41
630000,1.1526956482957236e-41
631000,1.156358983553121e-41
632000,1.1600281290176246e-41
633000,1.1637030846892322e-41
634000,1.1673838505679418e-41
635000,1.1710704266537503e-41
636000,1.1747628129466553e-41
637000,1.1784610094466552e-41
638000,1.1821650161537473e-41
639000,1.1858748330679293e-41
640000,1.1895904601891994e-41
641000,1.1933118975175548e-41
642000,1.1970391450529935e-41
643000,1.200772202795514e-41
644000,1.2045110707451125e-41
645000,1.2082557489017883e-41
646000,1.2120062372655389e-41
647000,1.2157625358363614e-41
648000,1.2195246446142547e-41
649000,1.2232925635992163e-41
650000,1.227066292791244e-41
651000,1.2308458321903362e-41
652000,1.23463118179649e-41
653000,1.2384223416097044e-41
654000,1.242219311629976e-41
655000,1.2460220918573046e-41
656000,1.2498306822916867e-41
657000,1.2536450829331213e-41
658000,1.257465293781606e-41
659000,1.2612913148371388e-41
660000,1.265123146099718e-41
661000,1.2689607875693413e-41
662000,1.2728042392460074e-41
663000,1.2766535011297135e-41
664000,1.2805085732204587e-41
665000,1.284369455518241e-41
666000,1.2882361480230578e-41
667000,1.2921086507349083e-41
668000,1.29598696365379e-41
